    2.000       83
    2.015       88
    2.030      111
    2.045      135
    2.060      152
    2.075      169
    2.090      169
    2.105      179
    2.120      214
    2.135      203
    2.150      215
    2.165      207
    2.180      202
    2.195      204
    2.210      217
    2.225      225
    2.240      227
    2.255      209
    2.270      223
    2.285      233
    2.300      249
    2.315      265
    2.330      257
    2.345      246
    2.360      259
    2.375      270
    2.390      257
    2.405      261
    2.420      272
    2.435      263
    2.450      289
    2.465      314
    2.480      284
    2.495      286
    2.510      287
    2.525      314
    2.540      322
    2.555      310
    2.570      320
    2.585      324
    2.600      341
    2.615      342
    2.630      392
    2.645      380
    2.660      372
    2.675      386
    2.690      406
    2.705      414
    2.720      436
    2.735      445
    2.750      435
    2.765      454
    2.780      490
    2.795      495
    2.810      515
    2.825      503
    2.840      527
    2.855      548
    2.870      590
    2.885      564
    2.900      590
    2.915      615
    2.930      650
    2.945      668
    2.960      731
    2.975      753
    2.990      794
    3.005      794
    3.020      833
    3.035      877
    3.050      928
    3.065     1078
    3.080     1148
    3.095     1277
    3.110     1375
    3.125     1408
    3.140     1226
    3.155      911
    3.170      571
    3.185      381
    3.200      284
    3.215      211
    3.230      173
    3.245      167
    3.260      145
    3.275      135
    3.290      125
    3.305      123
    3.320      130
    3.335      115
    3.350      111
    3.365       98
    3.380       97
    3.395      119
    3.410      109
    3.425      115
    3.440      101
    3.455      110
    3.470      115
    3.485      111
    3.500      109
    3.515      107
    3.530       93
    3.545      100
    3.560       90
    3.575      103
    3.590      109
    3.605      124
    3.620      109
    3.635      109
    3.650      101
    3.665      100
    3.680      118
    3.695      122
    3.710      118
    3.725      110
    3.740      132
    3.755      135
    3.770      115
    3.785      101
    3.800      122
    3.815      133
    3.830      128
    3.845      127
    3.860      141
    3.875      141
    3.890      142
    3.905      139
    3.920      149
    3.935      144
    3.950      141
    3.965      171
    3.980      169
    3.995      150
    4.010      144
    4.025      175
    4.040      158
    4.055      179
    4.070      184
    4.085      181
    4.100      193
    4.115      189
    4.130      190
    4.145      208
    4.160      190
    4.175      222
    4.190      232
    4.205      228
    4.220      238
    4.235      268
    4.250      276
    4.265      263
    4.280      264
    4.295      294
    4.310      295
    4.325      324
    4.340      342
    4.355      336
    4.370      363
    4.385      391
    4.400      443
    4.415      477
    4.430      581
    4.445      592
    4.460      509
    4.475      340
    4.490      252
    4.505      197
    4.520      184
    4.535      147
    4.550      141
    4.565      148
    4.580      138
    4.595      155
    4.610      132
    4.625      122
    4.640      110
    4.655      109
    4.670      115
    4.685      133
    4.700      102
    4.715      105
    4.730      128
    4.745      119
    4.760      112
    4.775      108
    4.790      104
    4.805      101
    4.820       98
    4.835       90
    4.850       97
    4.865       96
    4.880       99
    4.895       87
    4.910       93
    4.925       82
    4.940       88
    4.955       83
    4.970       89
    4.985       89
    5.000       80
    5.015       78
    5.030       68
    5.045       59
    5.060       74
    5.075       81
    5.090       74
    5.105       84
    5.120       87
    5.135       75
    5.150       80
    5.165       87
    5.180      100
    5.195       99
    5.210       88
    5.225       84
    5.240       88
    5.255       67
    5.270       80
    5.285       81
    5.300       82
    5.315       85
    5.330       74
    5.345       80
    5.360       80
    5.375       66
    5.390       75
    5.405       77
    5.420       76
    5.435       71
    5.450       66
    5.465       82
    5.480       83
    5.495       79
    5.510       73
    5.525       72
    5.540       68
    5.555       84
    5.570       95
    5.585       84
    5.600       74
    5.615       75
    5.630       66
    5.645       91
    5.660      102
    5.675      100
    5.690       80
    5.705       78
    5.720       89
    5.735       93
    5.750      102
    5.765       98
    5.780       97
    5.795       91
    5.810       97
    5.825      110
    5.840      100
    5.855       89
    5.870      104
    5.885      112
    5.900      100
    5.915      104
    5.930      109
    5.945      113
    5.960      119
    5.975      119
    5.990      114
    6.005      133
    6.020      130
    6.035      123
    6.050      146
    6.065      145
    6.080      147
    6.095      150
    6.110      150
    6.125      148
    6.140      180
    6.155      197
    6.170      200
    6.185      222
    6.200      204
    6.215      223
    6.230      251
    6.245      255
    6.260      279
    6.275      321
    6.290      330
    6.305      285
    6.320      240
    6.335      187
    6.350      154
    6.365      129
    6.380      139
    6.395      123
    6.410      118
    6.425      117
    6.440      102
    6.455      101
    6.470      117
    6.485      120
    6.500      109
    6.515      109
    6.530      105
    6.545      102
    6.560      106
    6.575      107
    6.590      100
    6.605      118
    6.620      113
    6.635      117
    6.650      117
    6.665      115
    6.680      131
    6.695      124
    6.710      110
    6.725      116
    6.740      141
    6.755      142
    6.770      137
    6.785      141
    6.800      155
    6.815      143
    6.830      138
    6.845      167
    6.860      163
    6.875      165
    6.890      157
    6.905      150
    6.920      160
    6.935      158
    6.950      180
    6.965      173
    6.980      193
    6.995      195
    7.010      229
    7.025      237
    7.040      213
    7.055      162
    7.070      134
    7.085      116
    7.100      103
    7.115       85
    7.130       99
    7.145       91
    7.160       81
    7.175       78
    7.190       82
    7.205       85
    7.220       84
    7.235       74
    7.250       90
    7.265       87
    7.280       93
    7.295       80
    7.310       69
    7.325       82
    7.340       94
    7.355       83
    7.370       80
    7.385       80
    7.400       78
    7.415       75
    7.430       75
    7.445       89
    7.460       89
    7.475       85
    7.490       85
    7.505      101
    7.520       87
    7.535       78
    7.550       94
    7.565      100
    7.580       75
    7.595       83
    7.610       90
    7.625       77
    7.640       90
    7.655       87
    7.670       87
    7.685      101
    7.700       87
    7.715       89
    7.730       92
    7.745       90
    7.760       94
    7.775       89
    7.790       85
    7.805       92
    7.820       94
    7.835       97
    7.850       88
    7.865       83
    7.880       84
    7.895       85
    7.910       98
    7.925       99
    7.940       93
    7.955       81
    7.970       83
    7.985      100
    8.000      105
    8.015       96
    8.030       88
    8.045       91
    8.060      103
    8.075      108
    8.090      107
    8.105       98
    8.120      106
    8.135      103
    8.150      122
    8.165      114
    8.180      102
    8.195      108
    8.210       98
    8.225      101
    8.240       88
    8.255       81
    8.270       84
    8.285       89
    8.300       89
    8.315       84
    8.330       93
    8.345       93
    8.360       90
    8.375       97
    8.390       90
    8.405       95
    8.420       78
    8.435       87
    8.450       88
    8.465       89
    8.480       90
    8.495       92
    8.510      102
    8.525       82
    8.540       91
    8.555      104
    8.570      102
    8.585       97
    8.600       80
    8.615      101
    8.630       87
    8.645       87
    8.660       89
    8.675      100
    8.690       99
    8.705      108
    8.720      119
    8.735      121
    8.750      100
    8.765      113
    8.780      112
    8.795      114
    8.810      112
    8.825       96
    8.840      117
    8.855      115
    8.870      116
    8.885      129
    8.900      133
    8.915      124
    8.930      119
    8.945      117
    8.960      106
    8.975      116
    8.990      110
    9.005      125
    9.020      108
    9.035      106
    9.050      115
    9.065      121
    9.080      127
    9.095      137
    9.110      127
    9.125      128
    9.140      125
    9.155      126
    9.170      142
    9.185      128
    9.200      132
    9.215      149
    9.230      160
    9.245      167
    9.260      150
    9.275      164
    9.290      169
    9.305      173
    9.320      165
    9.335      156
    9.350      140
    9.365      138
    9.380      141
    9.395      128
    9.410      135
    9.425      142
    9.440      151
    9.455      140
    9.470      124
    9.485       96
    9.500      118
    9.515      115
    9.530      108
    9.545      120
    9.560      124
    9.575      123
    9.590      113
    9.605      105
    9.620      102
    9.635      105
    9.650       98
    9.665      109
    9.680      114
    9.695      106
    9.710      108
    9.725      105
    9.740      104
    9.755      118
    9.770      113
    9.785      105
    9.800      104
    9.815      119
    9.830      111
    9.845      107
    9.860      109
    9.875      105
    9.890      100
    9.905      103
    9.920      107
    9.935      103
    9.950      114
    9.965      109
    9.980      119
    9.995      109
   10.010      111
   10.025      121
   10.040      110
   10.055      109
   10.070      106
   10.085      122
   10.100      126
   10.115      121
   10.130      134
   10.145      115
   10.160      126
   10.175      140
   10.190      137
   10.205      137
   10.220      121
   10.235      154
   10.250      141
   10.265      148
   10.280      149
   10.295      160
   10.310      182
   10.325      184
   10.340      158
   10.355      161
   10.370      139
   10.385      130
   10.400      143
   10.415      131
   10.430      130
   10.445      113
   10.460      113
   10.475      125
   10.490      120
   10.505      118
   10.520      101
   10.535      114
   10.550      113
   10.565      113
   10.580      116
   10.595      118
   10.610      116
   10.625       91
   10.640      103
   10.655      111
   10.670      124
   10.685      103
   10.700      102
   10.715      111
   10.730      112
   10.745      115
   10.760      112
   10.775      111
   10.790      117
   10.805       99
   10.820      104
   10.835       88
   10.850      115
   10.865      114
   10.880      113
   10.895      121
   10.910      109
   10.925      121
   10.940      120
   10.955      116
   10.970      123
   10.985      113
   11.000      115
   11.015      117
   11.030      123
   11.045      108
   11.060      125
   11.075      121
   11.090      105
   11.105      109
   11.120      130
   11.135      125
   11.150      147
   11.165      141
   11.180      131
   11.195      147
   11.210      145
   11.225      149
   11.240      135
   11.255      134
   11.270      134
   11.285      145
   11.300      134
   11.315      128
   11.330      115
   11.345      121
   11.360      121
   11.375      116
   11.390      127
   11.405      119
   11.420      120
   11.435      112
   11.450      107
   11.465      117
   11.480      135
   11.495       92
   11.510       98
   11.525      117
   11.540      119
   11.555      126
   11.570      127
   11.585      115
   11.600      108
   11.615      111
   11.630      122
   11.645      140
   11.660      142
   11.675      133
   11.690      136
   11.705      120
   11.720      136
   11.735      126
   11.750      134
   11.765      126
   11.780      127
   11.795      136
   11.810      136
   11.825      125
   11.840      129
   11.855      125
   11.870      118
   11.885      131
   11.900      143
   11.915      162
   11.930      135
   11.945      146
   11.960      149
   11.975      138
   11.990      153
   12.005      166
   12.020      167
   12.035      177
   12.050      206
   12.065      199
   12.080      190
   12.095      200
   12.110      176
   12.125      166
   12.140      159
   12.155      154
   12.170      115
   12.185      125
   12.200      133
   12.215      130
   12.230      135
   12.245      114
   12.260      130
   12.275      121
   12.290      114
   12.305      105
   12.320      104
   12.335      117
   12.350      105
   12.365      101
   12.380      106
   12.395      113
   12.410      108
   12.425       94
   12.440       97
   12.455       98
   12.470      108
   12.485      107
   12.500      109
   12.515       96
   12.530      103
   12.545      100
   12.560      113
   12.575      114
   12.590       96
   12.605       99
   12.620      107
   12.635      117
   12.650      115
   12.665       99
   12.680      110
   12.695      117
   12.710      114
   12.725      115
   12.740      110
   12.755      118
   12.770      122
   12.785      122
   12.800      121
   12.815      112
   12.830      131
   12.845      134
   12.860      126
   12.875      141
   12.890      137
   12.905      120
   12.920      124
   12.935      120
   12.950      114
   12.965      111
   12.980      129
   12.995      107
   13.010      120
   13.025      124
   13.040      109
   13.055      113
   13.070      107
   13.085      120
   13.100      117
   13.115       98
   13.130      106
   13.145      102
   13.160      117
   13.175      107
   13.190      109
   13.205      122
   13.220       99
   13.235       95
   13.250      110
   13.265      123
   13.280       98
   13.295      105
   13.310      129
   13.325      126
   13.340      103
   13.355      111
   13.370      125
   13.385      113
   13.400      118
   13.415      127
   13.430      114
   13.445      107
   13.460      112
   13.475      120
   13.490      116
   13.505      125
   13.520      121
   13.535      137
   13.550      109
   13.565      145
   13.580      130
   13.595      152
   13.610      145
   13.625      138
   13.640      183
   13.655      155
   13.670      146
   13.685      146
   13.700      139
   13.715      117
   13.730       99
   13.745      117
   13.760      117
   13.775       97
   13.790      106
   13.805       97
   13.820      106
   13.835       96
   13.850      118
   13.865      115
   13.880      103
   13.895       99
   13.910      100
   13.925      102
   13.940      105
   13.955      111
   13.970      109
   13.985      118
   14.000      118
   14.015      111
   14.030      116
   14.045      111
   14.060       98
   14.075      118
   14.090      110
   14.105      106
   14.120      107
   14.135      113
   14.150      100
   14.165      108
   14.180      103
   14.195      112
   14.210      118
   14.225      111
   14.240      127
   14.255      138
   14.270      140
   14.285      143
   14.300      149
   14.315      151
   14.330      161
   14.345      152
   14.360      145
   14.375      139
   14.390      132
   14.405      117
   14.420      117
   14.435      105
   14.450      100
   14.465      117
   14.480      112
   14.495      109
   14.510      108
   14.525       96
   14.540       93
   14.555       93
   14.570      102
   14.585       89
   14.600       97
   14.615      104
   14.630       87
   14.645       78
   14.660       94
   14.675      100
   14.690       94
   14.705       90
   14.720       93
   14.735       94
   14.750       83
   14.765       95
   14.780       96
   14.795      100
   14.810      103
   14.825       89
   14.840       88
   14.855       90
   14.870       88
   14.885      105
   14.900       94
   14.915       88
   14.930      105
   14.945      100
   14.960       97
   14.975       99
   14.990       92
   15.005      100
   15.020      112
   15.035      110
   15.050       89
   15.065       92
   15.080       94
   15.095      111
   15.110      110
   15.125      106
   15.140       84
   15.155       89
   15.170       85
   15.185       92
   15.200       97
   15.215       85
   15.230       96
   15.245       88
   15.260       87
   15.275       86
   15.290       78
   15.305       71
   15.320       96
   15.335       95
   15.350       88
   15.365       79
   15.380       84
   15.395       88
   15.410      105
   15.425      103
   15.440      103
   15.455       74
   15.470       86
   15.485      117
   15.500      100
   15.515      124
   15.530      111
   15.545       87
   15.560      116
   15.575      102
   15.590      121
   15.605      128
   15.620      118
   15.635      129
   15.650      134
   15.665      127
   15.680      145
   15.695      147
   15.710      128
   15.725      138
   15.740      127
   15.755      131
   15.770      123
   15.785      113
   15.800      116
   15.815      114
   15.830       98
   15.845       95
   15.860      103
   15.875      108
   15.890       97
   15.905       96
   15.920       95
   15.935      100
   15.950       96
   15.965       96
   15.980      104
   15.995       92
   16.010       94
   16.025       95
   16.040       98
   16.055      103
   16.070      113
   16.085      108
   16.100       98
   16.115       94
   16.130       89
   16.145       76
   16.160       86
   16.175       90
   16.190       94
   16.205       96
   16.220      103
   16.235      107
   16.250      108
   16.265      108
   16.280      105
   16.295      103
   16.310      103
   16.325      108
   16.340      104
   16.355      115
   16.370      110
   16.385      107
   16.400       97
   16.415       98
   16.430       98
   16.445       97
   16.460       94
   16.475       93
   16.490       77
   16.505       77
   16.520       73
   16.535       70
   16.550       81
   16.565       85
   16.580       85
   16.595       74
   16.610       76
   16.625       79
   16.640       80
   16.655       81
   16.670       80
   16.685       72
   16.700       75
   16.715       89
   16.730       89
   16.745       79
   16.760       81
   16.775       83
   16.790       96
   16.805       92
   16.820       77
   16.835       89
   16.850       79
   16.865      103
   16.880       91
   16.895       96
   16.910      102
   16.925      104
   16.940      101
   16.955      101
   16.970       90
   16.985       90
   17.000       84
   17.015       91
   17.030       78
   17.045       76
   17.060       74
   17.075       76
   17.090       54
   17.105       62
   17.120       69
   17.135       72
   17.150       72
   17.165       83
   17.180       72
   17.195       65
   17.210       73
   17.225       81
   17.240       88
   17.255       79
   17.270       81
   17.285       73
   17.300       69
   17.315       92
   17.330       76
   17.345       78
   17.360       73
   17.375       84
   17.390       72
   17.405       69
   17.420       75
   17.435       75
   17.450       72
   17.465       86
   17.480       78
   17.495       81
   17.510       89
   17.525      102
   17.540       69
   17.555       76
   17.570       84
   17.585       85
   17.600       67
   17.615       58
   17.630       66
   17.645       76
   17.660       82
   17.675       88
   17.690       74
   17.705       70
   17.720       73
   17.735       68
   17.750       84
   17.765       71
   17.780       81
   17.795       77
   17.810       79
   17.825       93
   17.840       78
   17.855       82
   17.870       75
   17.885       69
   17.900       87
   17.915      105
   17.930       89
   17.945       95
   17.960       91
   17.975       97
   17.990       99
   18.005       88
   18.020       87
   18.035       89
   18.050       97
   18.065       82
   18.080       92
   18.095       90
   18.110       92
   18.125       78
   18.140       89
   18.155       90
   18.170       80
   18.185       79
   18.200       86
   18.215       76
   18.230       70
   18.245       83
   18.260       76
   18.275       81
   18.290       81
   18.305       93
   18.320       92
   18.335       80
   18.350       71
   18.365       79
   18.380       83
   18.395       87
   18.410       75
   18.425       88
   18.440       81
   18.455       77
   18.470       77
   18.485       61
   18.500       71
   18.515       72
   18.530       75
   18.545       82
   18.560       93
   18.575       87
   18.590       86
   18.605       70
   18.620       88
   18.635       85
   18.650       81
   18.665       93
   18.680       91
   18.695       85
   18.710       93
   18.725       86
   18.740       74
   18.755       87
   18.770       87
   18.785       84
   18.800       86
   18.815       81
   18.830       78
   18.845       69
   18.860       87
   18.875       91
   18.890       99
   18.905      106
   18.920      104
   18.935      110
   18.950      116
   18.965      111
   18.980       99
   18.995       78
   19.010       69
   19.025       75
   19.040       73
   19.055       98
   19.070       99
   19.085       99
   19.100       97
   19.115       97
   19.130      102
   19.145      110
   19.160      124
   19.175      119
   19.190      119
   19.205      131
   19.220      122
   19.235      124
   19.250      128
   19.265       97
   19.280       95
   19.295       94
   19.310       92
   19.325       82
   19.340       95
   19.355       97
   19.370      109
   19.385      102
   19.400      103
   19.415      115
   19.430      115
   19.445      104
   19.460      104
   19.475      121
   19.490      112
   19.505      108
   19.520      106
   19.535      104
   19.550       96
   19.565       79
   19.580      102
   19.595       83
   19.610       94
   19.625       86
   19.640       91
   19.655       94
   19.670       85
   19.685       71
   19.700       81
   19.715       72
   19.730       65
   19.745       82
   19.760       90
   19.775       78
   19.790       83
   19.805       74
   19.820       73
   19.835       69
   19.850       86
   19.865       77
   19.880       75
   19.895       86
   19.910       79
   19.925      100
   19.940       91
   19.955       94
   19.970      100
   19.985      107
   20.000       99
   20.015       88
   20.030       86
   20.045       75
   20.060       89
   20.075       95
   20.090       90
   20.105       85
   20.120       95
   20.135       88
   20.150       82
   20.165      100
   20.180       97
   20.195      105
   20.210       99
   20.225       93
   20.240      116
   20.255       97
   20.270       89
   20.285       77
   20.300       77
   20.315       86
   20.330       73
   20.345       76
   20.360       73
   20.375       88
   20.390       80
   20.405       71
   20.420       83
   20.435       90
   20.450       76
   20.465       74
   20.480       74
   20.495       78
   20.510       75
   20.525       77
   20.540       78
   20.555       77
   20.570       72
   20.585       68
   20.600       75
   20.615       81
   20.630       89
   20.645       77
   20.660       78
   20.675       75
   20.690       77
   20.705       74
   20.720       75
   20.735       73
   20.750       74
   20.765       74
   20.780       69
   20.795       76
   20.810       78
   20.825       69
   20.840       74
   20.855       74
   20.870       71
   20.885       73
   20.900       85
   20.915       70
   20.930       67
   20.945       81
   20.960       75
   20.975       79
   20.990       79
   21.005       82
   21.020       82
   21.035       77
   21.050       75
   21.065       69
   21.080       69
   21.095       65
   21.110       61
   21.125       84
   21.140       65
   21.155       65
   21.170       70
   21.185       66
   21.200       59
   21.215       68
   21.230       68
   21.245       62
   21.260       64
   21.275       76
   21.290       74
   21.305       76
   21.320       75
   21.335       61
   21.350       65
   21.365       69
   21.380       62
   21.395       73
   21.410       69
   21.425       72
   21.440       69
   21.455       73
   21.470       62
   21.485       62
   21.500       68
   21.515       69
   21.530       69
   21.545       67
   21.560       68
   21.575       85
   21.590       78
   21.605       79
   21.620       74
   21.635       67
   21.650       74
   21.665       69
   21.680       74
   21.695       70
   21.710       67
   21.725       59
   21.740       66
   21.755       69
   21.770       56
   21.785       61
   21.800       60
   21.815       62
   21.830       78
   21.845       69
   21.860       63
   21.875       84
   21.890       61
   21.905       63
   21.920       72
   21.935       69
   21.950       71
   21.965       62
   21.980       66
   21.995       65
   22.010       64
   22.025       75
   22.040       75
   22.055       68
   22.070       63
   22.085       59
   22.100       74
   22.115       70
   22.130       66
   22.145       79
   22.160       82
   22.175       80
   22.190       79
   22.205       70
   22.220       70
   22.235       73
   22.250       71
   22.265       76
   22.280       81
   22.295       77
   22.310       88
   22.325       73
   22.340       91
   22.355       92
   22.370       87
   22.385       91
   22.400       98
   22.415       93
   22.430       94
   22.445       87
   22.460       79
   22.475       76
   22.490       82
   22.505       92
   22.520       82
   22.535       74
   22.550       78
   22.565       87
   22.580       80
   22.595       81
   22.610       77
   22.625       83
   22.640       87
   22.655       80
   22.670       87
   22.685       76
   22.700       64
   22.715       78
   22.730       78
   22.745       84
   22.760       79
   22.775       82
   22.790       80
   22.805       78
   22.820       73
   22.835       73
   22.850       74
   22.865       79
   22.880       71
   22.895       78
   22.910       62
   22.925       63
   22.940       65
   22.955       69
   22.970       65
   22.985       69
   23.000       77
   23.015       76
   23.030       63
   23.045       69
   23.060       74
   23.075       72
   23.090       62
   23.105       69
   23.120       78
   23.135       85
   23.150       80
   23.165       77
   23.180       66
   23.195       57
   23.210       73
   23.225       71
   23.240       65
   23.255       70
   23.270       73
   23.285       77
   23.300       79
   23.315       72
   23.330       84
   23.345       84
   23.360       64
   23.375       70
   23.390       66
   23.405       69
   23.420       72
   23.435       70
   23.450       67
   23.465       62
   23.480       61
   23.495       64
   23.510       63
   23.525       73
   23.540       71
   23.555       77
   23.570       71
   23.585       73
   23.600       71
   23.615       68
   23.630       72
   23.645       71
   23.660       72
   23.675       67
   23.690       58
   23.705       69
   23.720       65
   23.735       60
   23.750       60
   23.765       56
   23.780       70
   23.795       78
   23.810       60
   23.825       66
   23.840       70
   23.855       67
   23.870       78
   23.885       71
   23.900       69
   23.915       72
   23.930       76
   23.945       66
   23.960       69
   23.975       72
   23.990       77
   24.005       68
   24.020       59
   24.035       79
   24.050       71
   24.065       74
   24.080       77
   24.095       63
   24.110       58
   24.125       59
   24.140       70
   24.155       69
   24.170       67
   24.185       70
   24.200       65
   24.215       74
   24.230       73
   24.245       73
   24.260       75
   24.275       80
   24.290       70
   24.305       74
   24.320       62
   24.335       70
   24.350       72
   24.365       74
   24.380       77
   24.395       71
   24.410       63
   24.425       55
   24.440       67
   24.455       74
   24.470       66
   24.485       72
   24.500       71
   24.515       75
   24.530       67
   24.545       74
   24.560       82
   24.575       73
   24.590       61
   24.605       68
   24.620       79
   24.635       68
   24.650       74
   24.665       86
   24.680       92
   24.695       99
   24.710      100
   24.725      104
   24.740       86
   24.755       90
   24.770       96
   24.785       85
   24.800       81
   24.815       78
   24.830       78
   24.845       80
   24.860       91
   24.875       77
   24.890       81
   24.905       84
   24.920       85
   24.935       93
   24.950       82
   24.965       79
   24.980       82
   24.995       76
   25.010       68
   25.025       73
   25.040       76
   25.055       60
   25.070       77
   25.085       85
   25.100       77
   25.115       64
   25.130       67
   25.145       68
   25.160       74
   25.175       78
   25.190       69
   25.205       67
   25.220       72
   25.235       71
   25.250       67
   25.265       68
   25.280       65
   25.295       64
   25.310       65
   25.325       77
   25.340       77
   25.355       76
   25.370       55
   25.385       62
   25.400       70
   25.415       73
   25.430       67
   25.445       68
   25.460       78
   25.475       89
   25.490       87
   25.505       79
   25.520       91
   25.535       93
   25.550      107
   25.565       86
   25.580       89
   25.595       88
   25.610       85
   25.625       75
   25.640       82
   25.655       80
   25.670       68
   25.685       70
   25.700       76
   25.715       85
   25.730       77
   25.745       73
   25.760       72
   25.775       80
   25.790       72
   25.805       86
   25.820       78
   25.835       70
   25.850       79
   25.865       74
   25.880       82
   25.895       66
   25.910       69
   25.925       81
   25.940       82
   25.955       78
   25.970       70
   25.985       75
   26.000       79
   26.015       74
   26.030       73
   26.045       76
   26.060       65
   26.075       77
   26.090       68
   26.105       66
   26.120       73
   26.135       62
   26.150       75
   26.165       72
   26.180       74
   26.195       80
   26.210       76
   26.225       82
   26.240       74
   26.255       83
   26.270       78
   26.285       74
   26.300       75
   26.315       82
   26.330       79
   26.345       78
   26.360       76
   26.375       79
   26.390       64
   26.405       75
   26.420       78
   26.435       75
   26.450       71
   26.465       64
   26.480       64
   26.495       64
   26.510       84
   26.525       76
   26.540       68
   26.555       64
   26.570       64
   26.585       65
   26.600       63
   26.615       73
   26.630       68
   26.645       68
   26.660       75
   26.675       73
   26.690       68
   26.705       65
   26.720       71
   26.735       79
   26.750       85
   26.765       79
   26.780       78
   26.795       70
   26.810       65
   26.825       73
   26.840       72
   26.855       78
   26.870       81
   26.885       75
   26.900       77
   26.915       79
   26.930       82
   26.945       78
   26.960       67
   26.975       75
   26.990       81
   27.005       76
   27.020       73
   27.035       68
   27.050       79
   27.065       80
   27.080       75
   27.095       77
   27.110       80
   27.125       90
   27.140       83
   27.155       82
   27.170       75
   27.185       76
   27.200       83
   27.215       86
   27.230       82
   27.245       70
   27.260       75
   27.275       71
   27.290       91
   27.305       87
   27.320       84
   27.335       78
   27.350       80
   27.365       82
   27.380       93
   27.395       96
   27.410       98
   27.425       89
   27.440       94
   27.455      102
   27.470       98
   27.485       98
   27.500       99
   27.515      102
   27.530      101
   27.545       73
   27.560       74
   27.575       61
   27.590       62
   27.605       81
   27.620       82
   27.635       70
   27.650       66
   27.665       67
   27.680       81
   27.695       75
   27.710       80
   27.725       88
   27.740       82
   27.755       73
   27.770       87
   27.785       81
   27.800       80
   27.815       70
   27.830       73
   27.845       78
   27.860       58
   27.875       73
   27.890       81
   27.905       68
   27.920       74
   27.935       73
   27.950       64
   27.965       67
   27.980       75
   27.995       59
   28.010       67
   28.025       82
   28.040       75
   28.055       74
   28.070       76
   28.085       71
   28.100       67
   28.115       73
   28.130       72
   28.145       81
   28.160       79
   28.175       87
   28.190       88
   28.205       83
   28.220       84
   28.235       73
   28.250       73
   28.265       76
   28.280       85
   28.295       78
   28.310       71
   28.325       71
   28.340       73
   28.355       79
   28.370       66
   28.385       65
   28.400       64
   28.415       69
   28.430       76
   28.445       66
   28.460       79
   28.475       70
   28.490       84
   28.505       76
   28.520       72
   28.535       75
   28.550       81
   28.565       73
   28.580       87
   28.595       89
   28.610       84
   28.625       77
   28.640       80
   28.655       72
   28.670       65
   28.685       69
   28.700       71
   28.715       80
   28.730       74
   28.745       74
   28.760       81
   28.775       76
   28.790       75
   28.805       79
   28.820       77
   28.835       84
   28.850       76
   28.865       65
   28.880       73
   28.895       69
   28.910       73
   28.925       68
   28.940       70
   28.955       69
   28.970       58
   28.985       66
   29.000       60
   29.015       65
   29.030       79
   29.045       65
   29.060       75
   29.075       72
   29.090       74
   29.105       82
   29.120       70
   29.135       65
   29.150       62
   29.165       66
   29.180       74
   29.195       87
   29.210       81
   29.225       70
   29.240       78
   29.255       81
   29.270       84
   29.285       70
   29.300       90
   29.315       75
   29.330       87
   29.345       90
   29.360       83
   29.375       93
   29.390       82
   29.405       82
   29.420       75
   29.435       90
   29.450       92
   29.465       75
   29.480       65
   29.495       70
   29.510       72
   29.525       67
   29.540       72
   29.555       79
   29.570       82
   29.585       84
   29.600       78
   29.615       78
   29.630       80
   29.645       78
   29.660       72
   29.675       75
   29.690       80
   29.705       80
   29.720       63
   29.735       60
   29.750       71
   29.765       90
   29.780       70
   29.795       66
   29.810       76
   29.825       78
   29.840       80
   29.855       81
   29.870       70
   29.885       84
   29.900       70
   29.915       62
   29.930       74
   29.945       81
   29.960       71
   29.975       70
   29.990       64
   30.005       56
   30.020       72
   30.035       83
   30.050       63
   30.065       78
   30.080       70
   30.095       82
   30.110       70
   30.125       62
   30.140       69
   30.155       60
   30.170       61
   30.185       70
   30.200       58
   30.215       82
   30.230       79
   30.245       82
   30.260       81
   30.275       75
   30.290       81
   30.305       77
   30.320       70
   30.335       82
   30.350       81
   30.365       73
   30.380       85
   30.395       67
   30.410       65
   30.425       83
   30.440       74
   30.455       84
   30.470       69
   30.485       62
   30.500       60
   30.515       56
   30.530       67
   30.545       68
   30.560       67
   30.575       66
   30.590       71
   30.605       74
   30.620       68
   30.635       56
   30.650       55
   30.665       56
   30.680       64
   30.695       69
   30.710       71
   30.725       68
   30.740       59
   30.755       60
   30.770       66
   30.785       62
   30.800       67
   30.815       63
   30.830       55
   30.845       64
   30.860       54
   30.875       61
   30.890       77
   30.905       67
   30.920       70
   30.935       63
   30.950       62
   30.965       81
   30.980       83
   30.995       64
   31.010       63
   31.025       61
   31.040       71
   31.055       66
   31.070       56
   31.085       57
   31.100       64
   31.115       68
   31.130       65
   31.145       60
   31.160       63
   31.175       66
   31.190       64
   31.205       61
   31.220       64
   31.235       82
   31.250       86
   31.265       71
   31.280       51
   31.295       63
   31.310       68
   31.325       70
   31.340       63
   31.355       56
   31.370       64
   31.385       68
   31.400       68
   31.415       77
   31.430       70
   31.445       58
   31.460       61
   31.475       70
   31.490       75
   31.505       81
   31.520       77
   31.535       67
   31.550       73
   31.565       77
   31.580       63
   31.595       67
   31.610       61
   31.625       60
   31.640       59
   31.655       76
   31.670       69
   31.685       73
   31.700       72
   31.715       73
   31.730       71
   31.745       74
   31.760       71
   31.775       80
   31.790       67
   31.805       76
   31.820       66
   31.835       71
   31.850       69
   31.865       70
   31.880       70
   31.895       57
   31.910       66
   31.925       72
   31.940       57
   31.955       56
   31.970       46
   31.985       59
   32.000       59
   32.015       55
   32.030       70
   32.045       78
   32.060       67
   32.075       78
   32.090       77
   32.105       58
   32.120       68
   32.135       65
   32.150       72
   32.165       67
   32.180       67
   32.195       57
   32.210       81
   32.225       71
   32.240       64
   32.255       66
   32.270       59
   32.285       66
   32.300       51
   32.315       59
   32.330       79
   32.345       68
   32.360       61
   32.375       58
   32.390       62
   32.405       74
   32.420       61
   32.435       57
   32.450       70
   32.465       65
   32.480       63
   32.495       70
   32.510       55
   32.525       65
   32.540       67
   32.555       71
   32.570       71
   32.585       65
   32.600       58
   32.615       59
   32.630       75
   32.645       60
   32.660       58
   32.675       59
   32.690       62
   32.705       61
   32.720       71
   32.735       68
   32.750       66
   32.765       66
   32.780       67
   32.795       69
   32.810       71
   32.825       63
   32.840       59
   32.855       76
   32.870       57
   32.885       63
   32.900       76
   32.915       52
   32.930       56
   32.945       64
   32.960       66
   32.975       68
   32.990       69
   33.005       65
   33.020       56
   33.035       60
   33.050       65
   33.065       63
   33.080       57
   33.095       64
   33.110       61
   33.125       59
   33.140       61
   33.155       52
   33.170       61
   33.185       70
   33.200       73
   33.215       71
   33.230       64
   33.245       61
   33.260       70
   33.275       58
   33.290       59
   33.305       61
   33.320       60
   33.335       60
   33.350       66
   33.365       58
   33.380       63
   33.395       61
   33.410       63
   33.425       67
   33.440       56
   33.455       59
   33.470       66
   33.485       53
   33.500       75
   33.515       52
   33.530       70
   33.545       62
   33.560       61
   33.575       71
   33.590       65
   33.605       53
   33.620       45
   33.635       59
   33.650       62
   33.665       58
   33.680       59
   33.695       57
   33.710       69
   33.725       68
   33.740       57
   33.755       46
   33.770       58
   33.785       51
   33.800       54
   33.815       58
   33.830       67
   33.845       57
   33.860       59
   33.875       62
   33.890       65
   33.905       59
   33.920       56
   33.935       55
   33.950       62
   33.965       59
   33.980       59
   33.995       69
   34.010       60
   34.025       57
   34.040       50
   34.055       63
   34.070       58
   34.085       49
   34.100       60
   34.115       45
   34.130       69
   34.145       71
   34.160       62
   34.175       68
   34.190       51
   34.205       60
   34.220       52
   34.235       55
   34.250       59
   34.265       69
   34.280       72
   34.295       53
   34.310       69
   34.325       67
   34.340       58
   34.355       60
   34.370       58
   34.385       49
   34.400       51
   34.415       58
   34.430       69
   34.445       51
   34.460       54
   34.475       66
   34.490       66
   34.505       54
   34.520       65
   34.535       62
   34.550       63
   34.565       59
   34.580       61
   34.595       51
   34.610       44
   34.625       55
   34.640       57
   34.655       57
   34.670       61
   34.685       55
   34.700       50
   34.715       56
   34.730       56
   34.745       55
   34.760       56
   34.775       66
   34.790       71
   34.805       65
   34.820       66
   34.835       68
   34.850       65
   34.865       50
   34.880       60
   34.895       68
   34.910       66
   34.925       62
   34.940       55
   34.955       63
   34.970       64
   34.985       66
   35.000       66
   35.015       63
   35.030       63
   35.045       64
   35.060       53
   35.075       65
   35.090       53
   35.105       59
   35.120       58
   35.135       47
   35.150       50
   35.165       65
   35.180       57
   35.195       55
   35.210       54
   35.225       64
   35.240       59
   35.255       55
   35.270       61
   35.285       62
   35.300       62
   35.315       67
   35.330       69
   35.345       56
   35.360       53
   35.375       57
   35.390       56
   35.405       63
   35.420       59
   35.435       65
   35.450       65
   35.465       62
   35.480       54
   35.495       53
   35.510       62
   35.525       60
   35.540       56
   35.555       63
   35.570       64
   35.585       52
   35.600       55
   35.615       55
   35.630       57
   35.645       59
   35.660       50
   35.675       66
   35.690       42
   35.705       51
   35.720       58
   35.735       65
   35.750       56
   35.765       55
   35.780       57
   35.795       58
   35.810       52
   35.825       49
   35.840       41
   35.855       51
   35.870       59
   35.885       56
   35.900       61
   35.915       63
   35.930       52
   35.945       64
   35.960       65
   35.975       68
   35.990       58
   36.005       58
   36.020       57
   36.035       54
   36.050       64
   36.065       53
   36.080       56
   36.095       63
   36.110       56
   36.125       60
   36.140       53
   36.155       54
   36.170       55
   36.185       50
   36.200       53
   36.215       55
   36.230       46
   36.245       53
   36.260       55
   36.275       60
   36.290       43
   36.305       48
   36.320       57
   36.335       52
   36.350       62
   36.365       62
   36.380       64
   36.395       62
   36.410       63
   36.425       66
   36.440       54
   36.455       56
   36.470       57
   36.485       69
   36.500       49
   36.515       68
   36.530       69
   36.545       57
   36.560       44
   36.575       60
   36.590       58
   36.605       67
   36.620       54
   36.635       57
   36.650       50
   36.665       60
   36.680       56
   36.695       44
   36.710       50
   36.725       59
   36.740       58
   36.755       60
   36.770       62
   36.785       54
   36.800       52
   36.815       53
   36.830       58
   36.845       55
   36.860       57
   36.875       61
   36.890       60
   36.905       58
   36.920       51
   36.935       49
   36.950       50
   36.965       52
   36.980       45
   36.995       45
   37.010       53
   37.025       59
   37.040       51
   37.055       58
   37.070       47
   37.085       43
   37.100       46
   37.115       54
   37.130       50
   37.145       46
   37.160       49
   37.175       58
   37.190       61
   37.205       53
   37.220       53
   37.235       57
   37.250       57
   37.265       50
   37.280       54
   37.295       57
   37.310       59
   37.325       56
   37.340       47
   37.355       55
   37.370       47
   37.385       52
   37.400       57
   37.415       67
   37.430       61
   37.445       56
   37.460       46
   37.475       48
   37.490       51
   37.505       52
   37.520       58
   37.535       63
   37.550       59
   37.565       54
   37.580       53
   37.595       59
   37.610       53
   37.625       60
   37.640       51
   37.655       52
   37.670       51
   37.685       56
   37.700       55
   37.715       50
   37.730       58
   37.745       52
   37.760       52
   37.775       64
   37.790       59
   37.805       58
   37.820       55
   37.835       45
   37.850       47
   37.865       47
   37.880       44
   37.895       51
   37.910       56
   37.925       55
   37.940       55
   37.955       49
   37.970       48
   37.985       54
   38.000       50
   38.015       63
   38.030       51
   38.045       53
   38.060       63
   38.075       72
   38.090       58
   38.105       49
   38.120       45
   38.135       55
   38.150       52
   38.165       46
   38.180       48
   38.195       51
   38.210       54
   38.225       58
   38.240       57
   38.255       62
   38.270       48
   38.285       47
   38.300       51
   38.315       49
   38.330       46
   38.345       50
   38.360       49
   38.375       60
   38.390       58
   38.405       55
   38.420       56
   38.435       53
   38.450       55
   38.465       61
   38.480       55
   38.495       55
   38.510       61
   38.525       53
   38.540       48
   38.555       54
   38.570       56
   38.585       63
   38.600       62
   38.615       50
   38.630       52
   38.645       57
   38.660       58
   38.675       58
   38.690       60
   38.705       61
   38.720       55
   38.735       55
   38.750       65
   38.765       66
   38.780       65
   38.795       57
   38.810       61
   38.825       66
   38.840       51
   38.855       52
   38.870       75
   38.885       58
   38.900       56
   38.915       58
   38.930       68
   38.945       60
   38.960       58
   38.975       59
   38.990       54
   39.005       60
   39.020       63
   39.035       57
   39.050       59
   39.065       57
   39.080       47
   39.095       55
   39.110       65
   39.125       55
   39.140       52
   39.155       55
   39.170       60
   39.185       62
   39.200       52
   39.215       62
   39.230       57
   39.245       58
   39.260       58
   39.275       51
   39.290       51
   39.305       59
   39.320       61
   39.335       56
   39.350       57
   39.365       48
   39.380       44
   39.395       49
   39.410       50
   39.425       46
   39.440       57
   39.455       69
   39.470       52
   39.485       57
   39.500       57
   39.515       52
   39.530       53
   39.545       56
   39.560       54
   39.575       57
   39.590       52
   39.605       56
   39.620       50
   39.635       50
   39.650       50
   39.665       52
   39.680       49
   39.695       43
   39.710       44
   39.725       46
   39.740       51
   39.755       53
   39.770       50
   39.785       61
   39.800       64
   39.815       56
   39.830       56
   39.845       55
   39.860       53
   39.875       50
   39.890       47
   39.905       47
   39.920       51
   39.935       48
   39.950       50
   39.965       49
   39.980       47
   39.995       52
   40.010       49
   40.025       65
   40.040       57
   40.055       47
   40.070       50
   40.085       50
   40.100       47
   40.115       53
   40.130       63
   40.145       53
   40.160       64
   40.175       64
   40.190       53
   40.205       49
   40.220       49
   40.235       46
   40.250       56
   40.265       54
   40.280       54
   40.295       59
   40.310       43
   40.325       42
   40.340       56
   40.355       48
   40.370       50
   40.385       62
   40.400       61
   40.415       58
   40.430       54
   40.445       52
   40.460       62
   40.475       83
   40.490       66
   40.505       48
   40.520       51
   40.535       51
   40.550       54
   40.565       60
   40.580       51
   40.595       58
   40.610       60
   40.625       50
   40.640       54
   40.655       59
   40.670       56
   40.685       57
   40.700       51
   40.715       45
   40.730       67
   40.745       43
   40.760       37
   40.775       45
   40.790       45
   40.805       47
   40.820       55
   40.835       58
   40.850       69
   40.865       53
   40.880       53
   40.895       61
   40.910       61
   40.925       58
   40.940       52
   40.955       57
   40.970       55
   40.985       44
   41.000       46
   41.015       55
   41.030       54
   41.045       47
   41.060       57
   41.075       59
   41.090       55
   41.105       54
   41.120       48
   41.135       43
   41.150       48
   41.165       57
   41.180       49
   41.195       48
   41.210       51
   41.225       56
   41.240       55
   41.255       44
   41.270       51
   41.285       48
   41.300       40
   41.315       45
   41.330       51
   41.345       44
   41.360       45
   41.375       47
   41.390       49
   41.405       50
   41.420       53
   41.435       51
   41.450       54
   41.465       49
   41.480       45
   41.495       44
   41.510       49
   41.525       43
   41.540       54
   41.555       63
   41.570       49
   41.585       44
   41.600       43
   41.615       49
   41.630       49
   41.645       41
   41.660       53
   41.675       60
   41.690       54
   41.705       52
   41.720       46
   41.735       53
   41.750       57
   41.765       52
   41.780       49
   41.795       48
   41.810       49
   41.825       49
   41.840       59
   41.855       47
   41.870       42
   41.885       55
